#mammos csv v2
#----------------------------------------
# MaMMoS OOMMF sweeps for axis 'hard'.
# Source: MaMMoS_benchmark_OOMMF_sweeps.csv
# H is the external applied field (from bParallel_mT / mu0).
# Constants: mu0=4*pi*1e-7 (H/m), Ms=800000.0 A/m
# 
#----------------------------------------
#,,
#,,
#,,
H,M,M_over_Ms
0.0,13.713665249033195,1.7142081561291493e-05
824.1952410002326,65479.80226365159,0.08184975282956448
1648.3904820004652,130735.73193223696,0.1634196649152962
2472.5857230006977,195548.08006315617,0.24443510007894523
3296.780964080508,259590.45122165157,0.3244880640270645
4120.97620508074,322324.9757071211,0.40290621963390133
4945.1714460809735,382789.3892850384,0.478486736606298
5769.366687081207,439273.1036988836,0.5490913796236045
6593.561928081438,489342.13049338624,0.6116776631167328
7417.757169081671,531082.156877826,0.6638526960972825
8241.952410081904,564522.9704505068,0.7056537130631335
9066.147651161715,590905.944753458,0.7386324309418225
9890.342892161947,611949.9921650334,0.7649374902062916
10714.53813316218,629205.9451091728,0.7865074313864661
11538.733374162413,643691.070495496,0.80461383811937
12362.928615162644,656054.4044896783,0.8200680056120979
13187.123856162876,666712.085622126,0.8333901070276575
14011.31909716311,675963.4770196674,0.8449543462745842
14835.51433824292,684056.407279403,0.8550705090992536
15659.709579243154,691201.2483600414,0.8640015604500517
16483.904820243384,697568.4830577489,0.8719606038221861
17308.10006124362,703291.203977489,0.8791140049718613
18132.295302243852,708471.9623681103,0.8855899529601379
18956.490543244083,713190.4612744092,0.8914880765930115
19780.685784244317,717510.0421355669,0.8968875526694586
20604.881025324124,721482.2440172274,0.9018528050215343
21429.07626632436,725150.0743251552,0.906437592906444
22253.27150732459,728550.0453518874,0.9106875566898592
23077.466748324827,731713.7162493996,0.9146421453117495
23873.2414637843,734569.9049693939,0.9182123812117423
23063.979041316856,731663.7066627587,0.9145796333284484
22254.71661876984,728555.8031002636,0.9106947538753295
21445.45419630239,725220.132421245,0.9065251655265563
20636.191773755374,721626.9305027528,0.902033663128441
19826.92935128793,717741.6795024192,0.897177099378024
19017.666928740906,713524.1076492193,0.8919051345615242
18208.404506273466,708926.0155848347,0.8861575194810434
17399.142083806022,703888.5253704633,0.8798606567130791
16589.879661259,698338.0462273207,0.8729225577841508
15780.617238791554,692180.4898910797,0.8652256123638496
14971.354816244535,685294.3528626905,0.8566179410783631
14162.09239377709,677523.8903324496,0.846904862915562
13352.82997123007,668676.6580319027,0.8358458225398784
12543.567548762629,658524.7177529627,0.8231558971912034
11734.305126295183,646798.5363818976,0.808498170477372
10925.042703748162,633138.3378832276,0.7914229223540346
10115.780281280719,616994.8074856607,0.7712435093570759
9306.517858733698,597515.5025604746,0.7468943782005932
8497.255436266256,573376.9194079619,0.7167211492599523
7687.993013719234,542913.1498958193,0.6786414373697741
6878.73059125179,504769.0406927784,0.630961300865973
6069.468168784348,458378.61923458334,0.5729732740432292
5260.205746237326,404972.0081616037,0.5062150102020047
4450.943323769883,346880.0060710521,0.4336000075888151
3641.6809012228614,286044.461150353,0.3575555764379413
2832.4184787554186,223627.92163625103,0.2795349020453138
2023.156056287975,160277.60359849222,0.20034700449811527
1213.8936337409539,96373.67265104807,0.12046709081381009
404.6312112735105,32166.596737017684,0.040208245921272104
-404.6312112735105,-32140.074600258446,-0.040175093250323056
-1213.8936337409539,-96349.5383954775,-0.12043692299434688
-2023.156056287975,-160257.97454189576,-0.2003224681773697
-2832.4184787554186,-223614.75610062596,-0.27951844512578244
-3641.6809012228614,-286039.86061756796,-0.35754982577195993
-4450.943323769883,-346887.1015167249,-0.43360887689590616
-5260.205746237326,-404994.06640009646,-0.5062425830001206
-6069.468168784348,-458410.96365704807,-0.5730137045713101
-6878.73059125179,-504793.85716601246,-0.6309923214575156
-7687.993013719234,-542922.6785818397,-0.6786533482272996
-8497.255436266256,-573378.8621327748,-0.7167235776659685
-9306.517858733698,-597515.3543872226,-0.7468941929840281
-10115.780281280719,-616994.3750616802,-0.7712429688271003
-10925.042703748162,-633137.1480408731,-0.7914214350510914
-11734.305126295183,-646797.3353986971,-0.8084966692483714
-12543.567548762629,-658523.8159014778,-0.8231547698768473
-13352.82997123007,-668675.7881705613,-0.8358447352132017
-14162.09239377709,-677523.1795464737,-0.8469039744330921
-14971.354816244535,-685293.6322886857,-0.8566170403608571
-15780.617238791554,-692179.9902241359,-0.8652249877801699
-16589.879661259,-698337.6312308066,-0.8729220390385082
-17399.142083806022,-703888.1872457867,-0.8798602340572333
-18208.404506273466,-708925.7050735408,-0.886157131341926
-19017.666928740906,-713523.8692351145,-0.8919048365438932
-19826.92935128793,-717741.4587545132,-0.8971768234431414
-20636.191773755374,-721626.7025928742,-0.9020333782410928
-21445.45419630239,-725219.9283846079,-0.9065249104807599
-22254.71661876984,-728555.5806812306,-0.9106944758515383
-23063.979041316856,-731663.4715113302,-0.9145793393891628
-23873.2414637843,-734569.662178528,-0.91821207772316
-23077.466748324827,-731713.5081543115,-0.9146418851928894
-22267.97177915876,-728608.2512589425,-0.9107603140736782
-21458.4768099927,-725275.5599604585,-0.9065944499505731
-20648.981840826636,-721685.6816746428,-0.9021071020933036
-19839.486871660574,-717804.1973943475,-0.8972552467429344
-19029.99190241493,-713590.8480013653,-0.8919885600017067
-18220.49693324887,-708997.537747246,-0.8862469221840574
-17411.001964082803,-703965.5700502448,-0.879956962562806
-16601.50699491674,-698421.4798639828,-0.8730268498299785
-15792.012025750679,-692271.4696206361,-0.8653393370257951
-14982.517056584617,-685394.3140239955,-0.8567428925299945
-14173.022087418552,-677634.9254151173,-0.8470436567688966
-13363.527118252488,-668800.796102303,-0.8360009951278787
-12554.032149086428,-658664.5193753972,-0.8233306492192466
-11744.537179920364,-646957.0902763469,-0.8086963628454337
-10935.042210674721,-633320.0403071073,-0.791650050383884
-10125.547241508659,-617206.918132545,-0.7715086476656812
-9316.052272342597,-597769.1423024345,-0.7472114278780432
-8506.557303176533,-573689.765266217,-0.7171122065827712
-7697.06233401047,-543305.5097227979,-0.6791318871534974
-6887.567364844407,-505255.5023918321,-0.6315693779897902
-6078.072395678344,-458944.94098478445,-0.5736811762309806
-5268.57742651228,-405574.6150106606,-0.5069682687633258
-4459.082457346218,-347487.70786772465,-0.4343596348346558
-3649.587488180155,-286643.3587343061,-0.35830419841788264
-2840.0925189345144,-224211.87114921652,-0.28026483893652065
-2030.597549768451,-160843.55555218298,-0.2010544444402287
-1221.102580602388,-96920.49680663574,-0.12115062100829467
-411.60761143632476,-32694.29683464344,-0.0408678710433043
397.88735772973837,31630.85215279325,0.03953856519099156
1207.3823268958015,95857.98286289275,0.11982247857861594
2016.8772960618649,159783.52856358074,0.19972941070447592
2826.3722652279275,223157.47307306412,0.27894684134133013
3635.86723439399,285600.68894506514,0.3570008611813314
4445.362203639632,346468.10026635736,0.4330851253329467
5254.857172805695,404600.977563901,0.5057512219548762
6064.352141971757,458060.75354984566,0.5725759419373071
6873.84711113782,504513.1543992192,0.630641442999024
7683.342080303884,542715.9017741407,0.6783948772176758
8492.837049469948,573228.5741094499,0.7165357176368123
9302.33201863601,597403.6463974554,0.7467545579968192
10111.826987802073,616908.7191445477,0.7711358989306847
10921.321956968137,633069.9381816449,0.7913374227270561
11730.8169261342,646743.7979040102,0.8084297473800127
12540.311895379838,658480.8641999433,0.8231010802499291
13349.806864545902,668641.2684979117,0.8358015856223897
14159.301833711965,677495.2172166345,0.8468690215207931
14968.79680287803,685271.1666931161,0.856588958366395
15778.291772044093,692161.6945676528,0.8652021182095659
16587.786741210155,698322.8753394128,0.872903594174266
17397.28171037622,703876.3504152041,0.879845438019005
18206.776679542283,708916.3033135874,0.8861453791419843
19016.271648708345,713516.5054542077,0.8918956318177595
19825.766617874408,717735.8679596722,0.8971698349495904
20635.261587120047,721622.6024432302,0.9020282530540378
21444.756556286113,725217.1415019769,0.9065214268774711
22254.251525452175,728553.9444092608,0.910692430511576
23063.746494618237,731662.8290824025,0.9145785363530031
23873.2414637843,734569.9074362954,0.9182123842953692
